 Al Density=2.6989 Thickness=12. microns
 Photon Energy (eV), Transmission
    10.000      0.00000    
    59.980      0.47343E-07
    109.96      0.00000    
    159.94      0.00000    
    209.92      0.00000    
    259.90      0.00000    
    309.88      0.15546E-33
    359.86      0.60783E-23
    409.84      0.53602E-17
    459.82      0.69656E-13
    509.80      0.66843E-10
    559.78      0.96531E-08
    609.76      0.40561E-06
    659.74      0.70595E-05
    709.72      0.55789E-04
    759.70      0.28565E-03
    809.68      0.10439E-02
    859.66      0.29400E-02
    909.64      0.67778E-02
    959.62      0.13398E-01
    1009.6      0.23461E-01
    1059.6      0.37136E-01
    1109.6      0.55045E-01
    1159.5      0.76729E-01
    1209.5      0.10177    
    1259.5      0.12946    
    1309.5      0.15880    
    1359.5      0.18955    
    1409.4      0.22121    
    1459.4      0.25337    
    1509.4      0.28670    
    1559.4      0.32120    
    1609.4      0.36217E-05
    1659.3      0.86742E-05
    1709.3      0.19099E-04
    1759.3      0.39687E-04
    1809.3      0.78261E-04
    1859.3      0.14534E-03
    1909.2      0.25537E-03
    1959.2      0.42712E-03
    2009.2      0.68221E-03
    2059.2      0.10550E-02
    2109.2      0.15866E-02
    2159.1      0.23122E-02
    2209.1      0.32784E-02
    2259.1      0.45292E-02
    2309.1      0.61127E-02
    2359.1      0.80760E-02
    2409.0      0.10463E-01
    2459.0      0.13314E-01
    2509.0      0.16670E-01
    2559.0      0.20557E-01
    2609.0      0.25001E-01
    2658.9      0.30021E-01
    2708.9      0.35627E-01
    2758.9      0.41830E-01
    2808.9      0.48621E-01
    2858.9      0.55993E-01
    2908.8      0.63935E-01
    2958.8      0.72428E-01
    3008.8      0.81445E-01
    3058.8      0.90964E-01
    3108.8      0.10095    
    3158.7      0.11138    
    3208.7      0.12221    
    3258.7      0.13341    
    3308.7      0.14495    
    3358.7      0.15679    
    3408.6      0.16888    
    3458.6      0.18120    
    3508.6      0.19371    
    3558.6      0.20639    
    3608.6      0.21918    
    3658.5      0.23208    
    3708.5      0.24505    
    3758.5      0.25805    
    3808.5      0.27107    
    3858.5      0.28408    
    3908.4      0.29706    
    3958.4      0.30998    
    4008.4      0.32284    
    4058.4      0.33561    
    4108.4      0.34827    
    4158.3      0.36083    
    4208.3      0.37325    
    4258.3      0.38552    
    4308.3      0.39765    
    4358.3      0.40962    
    4408.2      0.42142    
    4458.2      0.43304    
    4508.2      0.44449    
    4558.2      0.45575    
    4608.2      0.46683    
    4658.1      0.47771    
    4708.1      0.48840    
    4758.1      0.49889    
    4808.1      0.50919    
    4858.1      0.51928    
    4908.0      0.52918    
    4958.0      0.53889    
    5008.0      0.54840    
    5058.0      0.55771    
    5108.0      0.56683    
    5157.9      0.57575    
    5207.9      0.58449    
    5257.9      0.59304    
    5307.9      0.60141    
    5357.9      0.60958    
    5407.8      0.61758    
    5457.8      0.62540    
    5507.8      0.63305    
    5557.8      0.64053    
    5607.8      0.64783    
    5657.7      0.65497    
    5707.7      0.66195    
    5757.7      0.66876    
    5807.7      0.67542    
    5857.7      0.68193    
    5907.6      0.68828    
    5957.6      0.69450    
    6007.6      0.70057    
    6057.6      0.70650    
    6107.6      0.71228    
    6157.5      0.71794    
    6207.5      0.72347    
    6257.5      0.72887    
    6307.5      0.73414    
    6357.5      0.73930    
    6407.4      0.74433    
    6457.4      0.74924    
    6507.4      0.75405    
    6557.4      0.75874    
    6607.4      0.76332    
    6657.3      0.76780    
    6707.3      0.77218    
    6757.3      0.77645    
    6807.3      0.78063    
    6857.3      0.78471    
    6907.2      0.78870    
    6957.2      0.79260    
    7007.2      0.79641    
    7057.2      0.80013    
    7107.2      0.80377    
    7157.1      0.80733    
    7207.1      0.81081    
    7257.1      0.81421    
    7307.1      0.81754    
    7357.1      0.82079    
    7407.0      0.82397    
    7457.0      0.82708    
    7507.0      0.83012    
    7557.0      0.83309    
    7607.0      0.83600    
    7656.9      0.83884    
    7706.9      0.84162    
    7756.9      0.84435    
    7806.9      0.84701    
    7856.9      0.84962    
    7906.8      0.85217    
    7956.8      0.85466    
    8006.8      0.85710    
    8056.8      0.85949    
    8106.8      0.86183    
    8156.7      0.86412    
    8206.7      0.86637    
    8256.7      0.86856    
    8306.7      0.87071    
    8356.7      0.87282    
    8406.6      0.87488    
    8456.6      0.87690    
    8506.6      0.87888    
    8556.6      0.88081    
    8606.6      0.88271    
    8656.5      0.88457    
    8706.5      0.88639    
    8756.5      0.88818    
    8806.5      0.88993    
    8856.5      0.89164    
    8906.4      0.89332    
    8956.4      0.89496    
    9006.4      0.89658    
    9056.4      0.89816    
    9106.4      0.89971    
    9156.3      0.90123    
    9206.3      0.90272    
    9256.3      0.90419    
    9306.3      0.90562    
    9356.3      0.90703    
    9406.2      0.90840    
    9456.2      0.90976    
    9506.2      0.91108    
    9556.2      0.91238    
    9606.2      0.91366    
    9656.1      0.91491    
    9706.1      0.91615    
    9756.1      0.91735    
    9806.1      0.91854    
    9856.1      0.91970    
    9906.0      0.92084    
    9956.0      0.92196    
    10006.      0.92306    
    10056.      0.92414    
    10106.      0.92520    
    10156.      0.92624    
    10206.      0.92726    
    10256.      0.92826    
    10306.      0.92925    
    10356.      0.93022    
    10406.      0.93117    
    10456.      0.93210    
    10506.      0.93302    
    10556.      0.93392    
    10606.      0.93481    
    10656.      0.93568    
    10706.      0.93653    
    10756.      0.93737    
    10806.      0.93820    
    10856.      0.93901    
    10906.      0.93981    
    10956.      0.94059    
    11006.      0.94136    
    11056.      0.94212    
    11106.      0.94286    
    11156.      0.94360    
    11206.      0.94432    
    11256.      0.94503    
    11305.      0.94572    
    11355.      0.94641    
    11405.      0.94708    
    11455.      0.94775    
    11505.      0.94840    
    11555.      0.94904    
    11605.      0.94967    
    11655.      0.95029    
    11705.      0.95090    
    11755.      0.95150    
    11805.      0.95209    
    11855.      0.95267    
    11905.      0.95325    
    11955.      0.95381    
    12005.      0.95436    
    12055.      0.95491    
    12105.      0.95545    
    12155.      0.95598    
    12205.      0.95650    
    12255.      0.95701    
    12305.      0.95751    
    12355.      0.95801    
    12405.      0.95850    
    12455.      0.95898    
    12505.      0.95946    
    12555.      0.95992    
    12605.      0.96038    
    12655.      0.96084    
    12705.      0.96128    
    12755.      0.96172    
    12805.      0.96216    
    12855.      0.96258    
    12905.      0.96300    
    12955.      0.96342    
    13005.      0.96383    
    13055.      0.96423    
    13105.      0.96462    
    13155.      0.96502    
    13205.      0.96540    
    13255.      0.96578    
    13305.      0.96615    
    13355.      0.96652    
    13405.      0.96688    
    13455.      0.96724    
    13505.      0.96760    
    13555.      0.96794    
    13605.      0.96829    
    13655.      0.96862    
    13705.      0.96896    
    13755.      0.96929    
    13804.      0.96961    
    13854.      0.96993    
    13904.      0.97024    
    13954.      0.97056    
    14004.      0.97086    
    14054.      0.97116    
    14104.      0.97146    
    14154.      0.97176    
    14204.      0.97205    
    14254.      0.97233    
    14304.      0.97261    
    14354.      0.97289    
    14404.      0.97317    
    14454.      0.97344    
    14504.      0.97371    
    14554.      0.97397    
    14604.      0.97423    
    14654.      0.97449    
    14704.      0.97474    
    14754.      0.97499    
    14804.      0.97524    
    14854.      0.97548    
    14904.      0.97572    
    14954.      0.97596    
    15004.      0.97619    
    15054.      0.97642    
    15104.      0.97665    
    15154.      0.97688    
    15204.      0.97710    
    15254.      0.97732    
    15304.      0.97754    
    15354.      0.97775    
    15404.      0.97796    
    15454.      0.97817    
    15504.      0.97838    
    15554.      0.97858    
    15604.      0.97878    
    15654.      0.97898    
    15704.      0.97918    
    15754.      0.97937    
    15804.      0.97956    
    15854.      0.97975    
    15904.      0.97994    
    15954.      0.98012    
    16004.      0.98031    
    16054.      0.98049    
    16104.      0.98066    
    16154.      0.98084    
    16204.      0.98101    
    16253.      0.98118    
    16303.      0.98135    
    16353.      0.98152    
    16403.      0.98168    
    16453.      0.98185    
    16503.      0.98201    
    16553.      0.98217    
    16603.      0.98233    
    16653.      0.98248    
    16703.      0.98264    
    16753.      0.98279    
    16803.      0.98294    
    16853.      0.98309    
    16903.      0.98323    
    16953.      0.98338    
    17003.      0.98352    
    17053.      0.98366    
    17103.      0.98380    
    17153.      0.98394    
    17203.      0.98408    
    17253.      0.98422    
    17303.      0.98435    
    17353.      0.98448    
    17403.      0.98461    
    17453.      0.98474    
    17503.      0.98487    
    17553.      0.98500    
    17603.      0.98512    
    17653.      0.98525    
    17703.      0.98537    
    17753.      0.98549    
    17803.      0.98561    
    17853.      0.98573    
    17903.      0.98584    
    17953.      0.98596    
    18003.      0.98607    
    18053.      0.98619    
    18103.      0.98630    
    18153.      0.98641    
    18203.      0.98652    
    18253.      0.98663    
    18303.      0.98674    
    18353.      0.98684    
    18403.      0.98695    
    18453.      0.98705    
    18503.      0.98715    
    18553.      0.98725    
    18603.      0.98736    
    18653.      0.98745    
    18703.      0.98755    
    18753.      0.98765    
    18802.      0.98775    
    18852.      0.98784    
    18902.      0.98794    
    18952.      0.98803    
    19002.      0.98812    
    19052.      0.98821    
    19102.      0.98830    
    19152.      0.98839    
    19202.      0.98848    
    19252.      0.98857    
    19302.      0.98866    
    19352.      0.98874    
    19402.      0.98883    
    19452.      0.98891    
    19502.      0.98900    
    19552.      0.98908    
    19602.      0.98916    
    19652.      0.98924    
    19702.      0.98932    
    19752.      0.98940    
    19802.      0.98948    
    19852.      0.98956    
    19902.      0.98963    
    19952.      0.98971    
    20002.      0.98979    
    20052.      0.98986    
    20102.      0.98993    
    20152.      0.99001    
    20202.      0.99008    
    20252.      0.99015    
    20302.      0.99022    
    20352.      0.99029    
    20402.      0.99036    
    20452.      0.99043    
    20502.      0.99050    
    20552.      0.99057    
    20602.      0.99063    
    20652.      0.99070    
    20702.      0.99077    
    20752.      0.99083    
    20802.      0.99090    
    20852.      0.99096    
    20902.      0.99102    
    20952.      0.99109    
    21002.      0.99115    
    21052.      0.99121    
    21102.      0.99127    
    21152.      0.99133    
    21202.      0.99139    
    21252.      0.99145    
    21301.      0.99151    
    21351.      0.99156    
    21401.      0.99162    
    21451.      0.99168    
    21501.      0.99173    
    21551.      0.99179    
    21601.      0.99185    
    21651.      0.99190    
    21701.      0.99195    
    21751.      0.99201    
    21801.      0.99206    
    21851.      0.99211    
    21901.      0.99217    
    21951.      0.99222    
    22001.      0.99227    
    22051.      0.99232    
    22101.      0.99237    
    22151.      0.99242    
    22201.      0.99247    
    22251.      0.99252    
    22301.      0.99257    
    22351.      0.99262    
    22401.      0.99266    
    22451.      0.99271    
    22501.      0.99276    
    22551.      0.99280    
    22601.      0.99285    
    22651.      0.99289    
    22701.      0.99294    
    22751.      0.99298    
    22801.      0.99303    
    22851.      0.99307    
    22901.      0.99312    
    22951.      0.99316    
    23001.      0.99320    
    23051.      0.99324    
    23101.      0.99329    
    23151.      0.99333    
    23201.      0.99337    
    23251.      0.99341    
    23301.      0.99345    
    23351.      0.99349    
    23401.      0.99353    
    23451.      0.99357    
    23501.      0.99361    
    23551.      0.99365    
    23601.      0.99369    
    23651.      0.99373    
    23701.      0.99376    
    23750.      0.99380    
    23800.      0.99384    
    23850.      0.99387    
    23900.      0.99391    
    23950.      0.99395    
    24000.      0.99398    
    24050.      0.99402    
    24100.      0.99405    
    24150.      0.99409    
    24200.      0.99412    
    24250.      0.99416    
    24300.      0.99419    
    24350.      0.99423    
    24400.      0.99426    
    24450.      0.99429    
    24500.      0.99433    
    24550.      0.99436    
    24600.      0.99439    
    24650.      0.99442    
    24700.      0.99446    
    24750.      0.99449    
    24800.      0.99452    
    24850.      0.99455    
    24900.      0.99458    
    24950.      0.99461    
    25000.      0.99464    