 C10H8O4 Density=1.4 Thickness=2760. microns
 Photon Energy (eV), Transmission
    10.000      0.00000    
    59.980      0.00000    
    109.96      0.00000    
    159.94      0.00000    
    209.92      0.00000    
    259.90      0.00000    
    309.88      0.00000    
    359.86      0.00000    
    409.84      0.00000    
    459.82      0.00000    
    509.80      0.00000    
    559.78      0.00000    
    609.76      0.00000    
    659.74      0.00000    
    709.72      0.00000    
    759.70      0.00000    
    809.68      0.00000    
    859.66      0.00000    
    909.64      0.00000    
    959.62      0.00000    
    1009.6      0.00000    
    1059.6      0.00000    
    1109.6      0.00000    
    1159.5      0.00000    
    1209.5      0.00000    
    1259.5      0.00000    
    1309.5      0.00000    
    1359.5      0.00000    
    1409.4      0.00000    
    1459.4      0.00000    
    1509.4      0.00000    
    1559.4      0.00000    
    1609.4      0.00000    
    1659.3      0.00000    
    1709.3      0.00000    
    1759.3      0.00000    
    1809.3      0.00000    
    1859.3      0.00000    
    1909.2      0.00000    
    1959.2      0.00000    
    2009.2      0.00000    
    2059.2      0.00000    
    2109.2      0.00000    
    2159.1      0.00000    
    2209.1      0.00000    
    2259.1      0.00000    
    2309.1      0.00000    
    2359.1      0.98091E-44
    2409.0      0.36139E-41
    2459.0      0.90497E-39
    2509.0      0.14972E-36
    2559.0      0.16993E-34
    2609.0      0.13698E-32
    2658.9      0.80668E-31
    2708.9      0.35832E-29
    2758.9      0.12257E-27
    2808.9      0.32988E-26
    2858.9      0.71396E-25
    2908.8      0.12655E-23
    2958.8      0.18640E-22
    3008.8      0.23145E-21
    3058.8      0.24578E-20
    3108.8      0.22591E-19
    3158.7      0.18162E-18
    3208.7      0.12900E-17
    3258.7      0.81660E-17
    3308.7      0.46472E-16
    3358.7      0.23946E-15
    3408.6      0.11251E-14
    3458.6      0.48536E-14
    3508.6      0.19331E-13
    3558.6      0.71477E-13
    3608.6      0.24653E-12
    3658.5      0.79756E-12
    3708.5      0.24263E-11
    3758.5      0.69701E-11
    3808.5      0.18987E-10
    3858.5      0.49206E-10
    3908.4      0.12163E-09
    3958.4      0.28778E-09
    4008.4      0.65247E-09
    4058.4      0.14226E-08
    4108.4      0.29907E-08
    4158.3      0.60718E-08
    4208.3      0.11922E-07
    4258.3      0.22689E-07
    4308.3      0.41930E-07
    4358.3      0.75359E-07
    4408.2      0.13192E-06
    4458.2      0.22527E-06
    4508.2      0.37578E-06
    4558.2      0.61307E-06
    4608.2      0.97935E-06
    4658.1      0.15337E-05
    4708.1      0.23569E-05
    4758.1      0.35575E-05
    4808.1      0.52790E-05
    4858.1      0.77087E-05
    4908.0      0.11084E-04
    4958.0      0.15708E-04
    5008.0      0.21956E-04
    5058.0      0.30287E-04
    5108.0      0.41262E-04
    5157.9      0.55540E-04
    5207.9      0.73909E-04
    5257.9      0.97305E-04
    5307.9      0.12679E-03
    5357.9      0.16359E-03
    5407.8      0.20909E-03
    5457.8      0.26487E-03
    5507.8      0.33265E-03
    5557.8      0.41435E-03
    5607.8      0.51205E-03
    5657.7      0.62800E-03
    5707.7      0.76486E-03
    5757.7      0.92511E-03
    5807.7      0.11117E-02
    5857.7      0.13275E-02
    5907.6      0.15757E-02
    5957.6      0.18595E-02
    6007.6      0.21823E-02
    6057.6      0.25475E-02
    6107.6      0.29586E-02
    6157.5      0.34196E-02
    6207.5      0.39340E-02
    6257.5      0.45053E-02
    6307.5      0.51371E-02
    6357.5      0.58333E-02
    6407.4      0.65974E-02
    6457.4      0.74331E-02
    6507.4      0.83437E-02
    6557.4      0.93327E-02
    6607.4      0.10403E-01
    6657.3      0.11558E-01
    6707.3      0.12801E-01
    6757.3      0.14134E-01
    6807.3      0.15559E-01
    6857.3      0.17080E-01
    6907.2      0.18699E-01
    6957.2      0.20416E-01
    7007.2      0.22236E-01
    7057.2      0.24158E-01
    7107.2      0.26184E-01
    7157.1      0.28316E-01
    7207.1      0.30554E-01
    7257.1      0.32898E-01
    7307.1      0.35349E-01
    7357.1      0.37907E-01
    7407.0      0.40572E-01
    7457.0      0.43345E-01
    7507.0      0.46226E-01
    7557.0      0.49212E-01
    7607.0      0.52303E-01
    7656.9      0.55497E-01
    7706.9      0.58795E-01
    7756.9      0.62195E-01
    7806.9      0.65694E-01
    7856.9      0.69293E-01
    7906.8      0.72987E-01
    7956.8      0.76775E-01
    8006.8      0.80654E-01
    8056.8      0.84626E-01
    8106.8      0.88689E-01
    8156.7      0.92836E-01
    8206.7      0.97068E-01
    8256.7      0.10138    
    8306.7      0.10577    
    8356.7      0.11024    
    8406.6      0.11478    
    8456.6      0.11939    
    8506.6      0.12407    
    8556.6      0.12881    
    8606.6      0.13361    
    8656.5      0.13847    
    8706.5      0.14339    
    8756.5      0.14836    
    8806.5      0.15338    
    8856.5      0.15845    
    8906.4      0.16357    
    8956.4      0.16872    
    9006.4      0.17392    
    9056.4      0.17915    
    9106.4      0.18442    
    9156.3      0.18971    
    9206.3      0.19504    
    9256.3      0.20039    
    9306.3      0.20576    
    9356.3      0.21116    
    9406.2      0.21657    
    9456.2      0.22200    
    9506.2      0.22744    
    9556.2      0.23290    
    9606.2      0.23836    
    9656.1      0.24383    
    9706.1      0.24931    
    9756.1      0.25479    
    9806.1      0.26027    
    9856.1      0.26575    
    9906.0      0.27123    
    9956.0      0.27670    
    10006.      0.28217    
    10056.      0.28763    
    10106.      0.29309    
    10156.      0.29853    
    10206.      0.30396    
    10256.      0.30938    
    10306.      0.31479    
    10356.      0.32017    
    10406.      0.32554    
    10456.      0.33089    
    10506.      0.33622    
    10556.      0.34152    
    10606.      0.34681    
    10656.      0.35207    
    10706.      0.35730    
    10756.      0.36251    
    10806.      0.36770    
    10856.      0.37285    
    10906.      0.37798    
    10956.      0.38308    
    11006.      0.38815    
    11056.      0.39319    
    11106.      0.39819    
    11156.      0.40317    
    11206.      0.40811    
    11256.      0.41303    
    11305.      0.41790    
    11355.      0.42275    
    11405.      0.42756    
    11455.      0.43233    
    11505.      0.43708    
    11555.      0.44178    
    11605.      0.44645    
    11655.      0.45108    
    11705.      0.45568    
    11755.      0.46024    
    11805.      0.46477    
    11855.      0.46925    
    11905.      0.47371    
    11955.      0.47812    
    12005.      0.48250    
    12055.      0.48684    
    12105.      0.49114    
    12155.      0.49540    
    12205.      0.49963    
    12255.      0.50382    
    12305.      0.50798    
    12355.      0.51210    
    12405.      0.51617    
    12455.      0.52022    
    12505.      0.52422    
    12555.      0.52819    
    12605.      0.53212    
    12655.      0.53601    
    12705.      0.53987    
    12755.      0.54369    
    12805.      0.54747    
    12855.      0.55121    
    12905.      0.55492    
    12955.      0.55860    
    13005.      0.56223    
    13055.      0.56584    
    13105.      0.56940    
    13155.      0.57294    
    13205.      0.57643    
    13255.      0.57989    
    13305.      0.58332    
    13355.      0.58671    
    13405.      0.59007    
    13455.      0.59339    
    13505.      0.59668    
    13555.      0.59994    
    13605.      0.60316    
    13655.      0.60635    
    13705.      0.60950    
    13755.      0.61263    
    13804.      0.61572    
    13854.      0.61878    
    13904.      0.62180    
    13954.      0.62480    
    14004.      0.62776    
    14054.      0.63069    
    14104.      0.63360    
    14154.      0.63647    
    14204.      0.63931    
    14254.      0.64212    
    14304.      0.64490    
    14354.      0.64765    
    14404.      0.65037    
    14454.      0.65306    
    14504.      0.65573    
    14554.      0.65836    
    14604.      0.66097    
    14654.      0.66355    
    14704.      0.66610    
    14754.      0.66862    
    14804.      0.67112    
    14854.      0.67359    
    14904.      0.67603    
    14954.      0.67845    
    15004.      0.68084    
    15054.      0.68322    
    15104.      0.68557    
    15154.      0.68790    
    15204.      0.69020    
    15254.      0.69247    
    15304.      0.69473    
    15354.      0.69695    
    15404.      0.69916    
    15454.      0.70134    
    15504.      0.70349    
    15554.      0.70563    
    15604.      0.70774    
    15654.      0.70982    
    15704.      0.71189    
    15754.      0.71393    
    15804.      0.71595    
    15854.      0.71795    
    15904.      0.71993    
    15954.      0.72188    
    16004.      0.72382    
    16054.      0.72573    
    16104.      0.72763    
    16154.      0.72950    
    16204.      0.73135    
    16253.      0.73318    
    16303.      0.73500    
    16353.      0.73679    
    16403.      0.73856    
    16453.      0.74032    
    16503.      0.74206    
    16553.      0.74377    
    16603.      0.74547    
    16653.      0.74716    
    16703.      0.74882    
    16753.      0.75046    
    16803.      0.75209    
    16853.      0.75370    
    16903.      0.75529    
    16953.      0.75687    
    17003.      0.75843    
    17053.      0.75997    
    17103.      0.76150    
    17153.      0.76301    
    17203.      0.76450    
    17253.      0.76598    
    17303.      0.76744    
    17353.      0.76889    
    17403.      0.77032    
    17453.      0.77174    
    17503.      0.77314    
    17553.      0.77452    
    17603.      0.77589    
    17653.      0.77725    
    17703.      0.77859    
    17753.      0.77992    
    17803.      0.78123    
    17853.      0.78253    
    17903.      0.78382    
    17953.      0.78510    
    18003.      0.78635    
    18053.      0.78760    
    18103.      0.78883    
    18153.      0.79005    
    18203.      0.79126    
    18253.      0.79246    
    18303.      0.79364    
    18353.      0.79481    
    18403.      0.79597    
    18453.      0.79711    
    18503.      0.79825    
    18553.      0.79937    
    18603.      0.80048    
    18653.      0.80158    
    18703.      0.80267    
    18753.      0.80374    
    18802.      0.80481    
    18852.      0.80586    
    18902.      0.80691    
    18952.      0.80794    
    19002.      0.80896    
    19052.      0.80997    
    19102.      0.81097    
    19152.      0.81196    
    19202.      0.81294    
    19252.      0.81392    
    19302.      0.81488    
    19352.      0.81583    
    19402.      0.81677    
    19452.      0.81770    
    19502.      0.81862    
    19552.      0.81953    
    19602.      0.82044    
    19652.      0.82133    
    19702.      0.82221    
    19752.      0.82309    
    19802.      0.82393    
    19852.      0.82474    
    19902.      0.82555    
    19952.      0.82635    
    20002.      0.82714    
    20052.      0.82793    
    20102.      0.82874    
    20152.      0.82957    
    20202.      0.83039    
    20252.      0.83121    
    20302.      0.83202    
    20352.      0.83282    
    20402.      0.83361    
    20452.      0.83440    
    20502.      0.83517    
    20552.      0.83594    
    20602.      0.83671    
    20652.      0.83746    
    20702.      0.83821    
    20752.      0.83895    
    20802.      0.83968    
    20852.      0.84041    
    20902.      0.84113    
    20952.      0.84184    
    21002.      0.84254    
    21052.      0.84324    
    21102.      0.84393    
    21152.      0.84462    
    21202.      0.84530    
    21252.      0.84597    
    21301.      0.84663    
    21351.      0.84729    
    21401.      0.84794    
    21451.      0.84859    
    21501.      0.84923    
    21551.      0.84987    
    21601.      0.85049    
    21651.      0.85112    
    21701.      0.85173    
    21751.      0.85234    
    21801.      0.85295    
    21851.      0.85355    
    21901.      0.85414    
    21951.      0.85473    
    22001.      0.85531    
    22051.      0.85589    
    22101.      0.85646    
    22151.      0.85703    
    22201.      0.85759    
    22251.      0.85814    
    22301.      0.85870    
    22351.      0.85924    
    22401.      0.85978    
    22451.      0.86032    
    22501.      0.86085    
    22551.      0.86137    
    22601.      0.86190    
    22651.      0.86241    
    22701.      0.86292    
    22751.      0.86343    
    22801.      0.86393    
    22851.      0.86443    
    22901.      0.86493    
    22951.      0.86541    
    23001.      0.86590    
    23051.      0.86638    
    23101.      0.86685    
    23151.      0.86733    
    23201.      0.86779    
    23251.      0.86826    
    23301.      0.86872    
    23351.      0.86917    
    23401.      0.86962    
    23451.      0.87007    
    23501.      0.87051    
    23551.      0.87095    
    23601.      0.87139    
    23651.      0.87182    
    23701.      0.87224    
    23750.      0.87267    
    23800.      0.87309    
    23850.      0.87350    
    23900.      0.87392    
    23950.      0.87433    
    24000.      0.87473    
    24050.      0.87513    
    24100.      0.87553    
    24150.      0.87593    
    24200.      0.87632    
    24250.      0.87671    
    24300.      0.87709    
    24350.      0.87747    
    24400.      0.87785    
    24450.      0.87823    
    24500.      0.87860    
    24550.      0.87897    
    24600.      0.87933    
    24650.      0.87969    
    24700.      0.88005    
    24750.      0.88041    
    24800.      0.88076    
    24850.      0.88111    
    24900.      0.88146    
    24950.      0.88180    
    25000.      0.88214    