 C22H10N2O5 Density=1.43 Thickness=125. microns
 Photon Energy (eV), Transmission
    10.000      0.00000    
    59.980      0.00000    
    109.96      0.00000    
    159.94      0.00000    
    209.92      0.00000    
    259.90      0.69399E-27
    309.88      0.00000    
    359.86      0.00000    
    409.84      0.00000    
    459.82      0.00000    
    509.80      0.00000    
    559.78      0.00000    
    609.76      0.00000    
    659.74      0.00000    
    709.72      0.00000    
    759.70      0.42039E-44
    809.68      0.33163E-37
    859.66      0.12046E-31
    909.64      0.32871E-27
    959.62      0.15904E-23
    1009.6      0.18751E-20
    1059.6      0.67684E-18
    1109.6      0.99801E-16
    1159.5      0.67547E-14
    1209.5      0.24322E-12
    1259.5      0.52910E-11
    1309.5      0.77604E-10
    1359.5      0.79460E-09
    1409.4      0.60000E-08
    1459.4      0.35104E-07
    1509.4      0.16673E-06
    1559.4      0.66370E-06
    1609.4      0.22515E-05
    1659.3      0.66562E-05
    1709.3      0.17476E-04
    1759.3      0.41584E-04
    1809.3      0.90800E-04
    1859.3      0.18324E-03
    1909.2      0.34492E-03
    1959.2      0.61076E-03
    2009.2      0.10236E-02
    2059.2      0.16383E-02
    2109.2      0.25195E-02
    2159.1      0.37319E-02
    2209.1      0.53462E-02
    2259.1      0.74325E-02
    2309.1      0.10059E-01
    2359.1      0.13288E-01
    2409.0      0.17174E-01
    2459.0      0.21762E-01
    2509.0      0.27088E-01
    2559.0      0.33174E-01
    2609.0      0.40033E-01
    2658.9      0.47662E-01
    2708.9      0.56060E-01
    2758.9      0.65200E-01
    2808.9      0.75054E-01
    2858.9      0.85590E-01
    2908.8      0.96772E-01
    2958.8      0.10855    
    3008.8      0.12087    
    3058.8      0.13369    
    3108.8      0.14695    
    3158.7      0.16060    
    3208.7      0.17459    
    3258.7      0.18887    
    3308.7      0.20339    
    3358.7      0.21809    
    3408.6      0.23293    
    3458.6      0.24787    
    3508.6      0.26287    
    3558.6      0.27790    
    3608.6      0.29291    
    3658.5      0.30788    
    3708.5      0.32278    
    3758.5      0.33757    
    3808.5      0.35223    
    3858.5      0.36675    
    3908.4      0.38110    
    3958.4      0.39527    
    4008.4      0.40921    
    4058.4      0.42295    
    4108.4      0.43648    
    4158.3      0.44977    
    4208.3      0.46281    
    4258.3      0.47560    
    4308.3      0.48813    
    4358.3      0.50039    
    4408.2      0.51240    
    4458.2      0.52414    
    4508.2      0.53561    
    4558.2      0.54682    
    4608.2      0.55777    
    4658.1      0.56846    
    4708.1      0.57889    
    4758.1      0.58906    
    4808.1      0.59897    
    4858.1      0.60864    
    4908.0      0.61806    
    4958.0      0.62724    
    5008.0      0.63619    
    5058.0      0.64490    
    5108.0      0.65338    
    5157.9      0.66164    
    5207.9      0.66968    
    5257.9      0.67751    
    5307.9      0.68513    
    5357.9      0.69255    
    5407.8      0.69977    
    5457.8      0.70679    
    5507.8      0.71363    
    5557.8      0.72028    
    5607.8      0.72675    
    5657.7      0.73304    
    5707.7      0.73917    
    5757.7      0.74513    
    5807.7      0.75093    
    5857.7      0.75658    
    5907.6      0.76207    
    5957.6      0.76742    
    6007.6      0.77262    
    6057.6      0.77768    
    6107.6      0.78261    
    6157.5      0.78741    
    6207.5      0.79208    
    6257.5      0.79662    
    6307.5      0.80104    
    6357.5      0.80535    
    6407.4      0.80954    
    6457.4      0.81362    
    6507.4      0.81760    
    6557.4      0.82147    
    6607.4      0.82524    
    6657.3      0.82891    
    6707.3      0.83249    
    6757.3      0.83597    
    6807.3      0.83937    
    6857.3      0.84267    
    6907.2      0.84590    
    6957.2      0.84903    
    7007.2      0.85209    
    7057.2      0.85508    
    7107.2      0.85798    
    7157.1      0.86082    
    7207.1      0.86358    
    7257.1      0.86628    
    7307.1      0.86890    
    7357.1      0.87146    
    7407.0      0.87396    
    7457.0      0.87640    
    7507.0      0.87878    
    7557.0      0.88110    
    7607.0      0.88336    
    7656.9      0.88557    
    7706.9      0.88772    
    7756.9      0.88983    
    7806.9      0.89188    
    7856.9      0.89388    
    7906.8      0.89584    
    7956.8      0.89775    
    8006.8      0.89961    
    8056.8      0.90144    
    8106.8      0.90322    
    8156.7      0.90496    
    8206.7      0.90665    
    8256.7      0.90832    
    8306.7      0.90994    
    8356.7      0.91152    
    8406.6      0.91307    
    8456.6      0.91458    
    8506.6      0.91606    
    8556.6      0.91751    
    8606.6      0.91892    
    8656.5      0.92031    
    8706.5      0.92166    
    8756.5      0.92298    
    8806.5      0.92427    
    8856.5      0.92554    
    8906.4      0.92677    
    8956.4      0.92798    
    9006.4      0.92917    
    9056.4      0.93033    
    9106.4      0.93146    
    9156.3      0.93257    
    9206.3      0.93365    
    9256.3      0.93472    
    9306.3      0.93576    
    9356.3      0.93677    
    9406.2      0.93777    
    9456.2      0.93875    
    9506.2      0.93970    
    9556.2      0.94064    
    9606.2      0.94156    
    9656.1      0.94245    
    9706.1      0.94333    
    9756.1      0.94420    
    9806.1      0.94504    
    9856.1      0.94587    
    9906.0      0.94668    
    9956.0      0.94747    
    10006.      0.94825    
    10056.      0.94902    
    10106.      0.94976    
    10156.      0.95050    
    10206.      0.95122    
    10256.      0.95192    
    10306.      0.95262    
    10356.      0.95329    
    10406.      0.95396    
    10456.      0.95461    
    10506.      0.95525    
    10556.      0.95588    
    10606.      0.95650    
    10656.      0.95710    
    10706.      0.95769    
    10756.      0.95827    
    10806.      0.95885    
    10856.      0.95941    
    10906.      0.95996    
    10956.      0.96050    
    11006.      0.96103    
    11056.      0.96154    
    11106.      0.96206    
    11156.      0.96256    
    11206.      0.96305    
    11256.      0.96353    
    11305.      0.96401    
    11355.      0.96447    
    11405.      0.96493    
    11455.      0.96538    
    11505.      0.96582    
    11555.      0.96625    
    11605.      0.96668    
    11655.      0.96710    
    11705.      0.96751    
    11755.      0.96791    
    11805.      0.96831    
    11855.      0.96870    
    11905.      0.96908    
    11955.      0.96946    
    12005.      0.96983    
    12055.      0.97019    
    12105.      0.97055    
    12155.      0.97090    
    12205.      0.97125    
    12255.      0.97159    
    12305.      0.97192    
    12355.      0.97225    
    12405.      0.97257    
    12455.      0.97289    
    12505.      0.97320    
    12555.      0.97351    
    12605.      0.97381    
    12655.      0.97411    
    12705.      0.97440    
    12755.      0.97469    
    12805.      0.97497    
    12855.      0.97525    
    12905.      0.97552    
    12955.      0.97579    
    13005.      0.97606    
    13055.      0.97632    
    13105.      0.97658    
    13155.      0.97683    
    13205.      0.97708    
    13255.      0.97732    
    13305.      0.97756    
    13355.      0.97780    
    13405.      0.97803    
    13455.      0.97826    
    13505.      0.97849    
    13555.      0.97871    
    13605.      0.97893    
    13655.      0.97915    
    13705.      0.97936    
    13755.      0.97957    
    13804.      0.97977    
    13854.      0.97998    
    13904.      0.98018    
    13954.      0.98037    
    14004.      0.98057    
    14054.      0.98076    
    14104.      0.98095    
    14154.      0.98113    
    14204.      0.98132    
    14254.      0.98149    
    14304.      0.98167    
    14354.      0.98185    
    14404.      0.98202    
    14454.      0.98219    
    14504.      0.98236    
    14554.      0.98252    
    14604.      0.98268    
    14654.      0.98284    
    14704.      0.98300    
    14754.      0.98315    
    14804.      0.98331    
    14854.      0.98346    
    14904.      0.98361    
    14954.      0.98375    
    15004.      0.98390    
    15054.      0.98404    
    15104.      0.98418    
    15154.      0.98432    
    15204.      0.98446    
    15254.      0.98459    
    15304.      0.98473    
    15354.      0.98486    
    15404.      0.98499    
    15454.      0.98512    
    15504.      0.98524    
    15554.      0.98537    
    15604.      0.98549    
    15654.      0.98561    
    15704.      0.98573    
    15754.      0.98585    
    15804.      0.98596    
    15854.      0.98608    
    15904.      0.98619    
    15954.      0.98630    
    16004.      0.98641    
    16054.      0.98652    
    16104.      0.98663    
    16154.      0.98673    
    16204.      0.98684    
    16253.      0.98694    
    16303.      0.98704    
    16353.      0.98714    
    16403.      0.98724    
    16453.      0.98734    
    16503.      0.98744    
    16553.      0.98753    
    16603.      0.98763    
    16653.      0.98772    
    16703.      0.98781    
    16753.      0.98790    
    16803.      0.98799    
    16853.      0.98808    
    16903.      0.98816    
    16953.      0.98825    
    17003.      0.98833    
    17053.      0.98842    
    17103.      0.98850    
    17153.      0.98858    
    17203.      0.98866    
    17253.      0.98874    
    17303.      0.98882    
    17353.      0.98890    
    17403.      0.98897    
    17453.      0.98905    
    17503.      0.98913    
    17553.      0.98920    
    17603.      0.98927    
    17653.      0.98934    
    17703.      0.98941    
    17753.      0.98948    
    17803.      0.98955    
    17853.      0.98962    
    17903.      0.98969    
    17953.      0.98976    
    18003.      0.98982    
    18053.      0.98989    
    18103.      0.98995    
    18153.      0.99002    
    18203.      0.99008    
    18253.      0.99014    
    18303.      0.99020    
    18353.      0.99026    
    18403.      0.99032    
    18453.      0.99038    
    18503.      0.99044    
    18553.      0.99050    
    18603.      0.99056    
    18653.      0.99061    
    18703.      0.99067    
    18753.      0.99072    
    18802.      0.99078    
    18852.      0.99083    
    18902.      0.99088    
    18952.      0.99094    
    19002.      0.99099    
    19052.      0.99104    
    19102.      0.99109    
    19152.      0.99114    
    19202.      0.99119    
    19252.      0.99124    
    19302.      0.99129    
    19352.      0.99134    
    19402.      0.99138    
    19452.      0.99143    
    19502.      0.99148    
    19552.      0.99152    
    19602.      0.99157    
    19652.      0.99161    
    19702.      0.99166    
    19752.      0.99170    
    19802.      0.99174    
    19852.      0.99178    
    19902.      0.99182    
    19952.      0.99186    
    20002.      0.99190    
    20052.      0.99194    
    20102.      0.99198    
    20152.      0.99202    
    20202.      0.99206    
    20252.      0.99210    
    20302.      0.99214    
    20352.      0.99218    
    20402.      0.99222    
    20452.      0.99226    
    20502.      0.99230    
    20552.      0.99234    
    20602.      0.99238    
    20652.      0.99241    
    20702.      0.99245    
    20752.      0.99249    
    20802.      0.99252    
    20852.      0.99256    
    20902.      0.99259    
    20952.      0.99263    
    21002.      0.99266    
    21052.      0.99270    
    21102.      0.99273    
    21152.      0.99276    
    21202.      0.99280    
    21252.      0.99283    
    21301.      0.99286    
    21351.      0.99289    
    21401.      0.99293    
    21451.      0.99296    
    21501.      0.99299    
    21551.      0.99302    
    21601.      0.99305    
    21651.      0.99308    
    21701.      0.99311    
    21751.      0.99314    
    21801.      0.99317    
    21851.      0.99320    
    21901.      0.99323    
    21951.      0.99326    
    22001.      0.99328    
    22051.      0.99331    
    22101.      0.99334    
    22151.      0.99337    
    22201.      0.99339    
    22251.      0.99342    
    22301.      0.99345    
    22351.      0.99347    
    22401.      0.99350    
    22451.      0.99352    
    22501.      0.99355    
    22551.      0.99358    
    22601.      0.99360    
    22651.      0.99362    
    22701.      0.99365    
    22751.      0.99367    
    22801.      0.99370    
    22851.      0.99372    
    22901.      0.99375    
    22951.      0.99377    
    23001.      0.99379    
    23051.      0.99381    
    23101.      0.99384    
    23151.      0.99386    
    23201.      0.99388    
    23251.      0.99390    
    23301.      0.99393    
    23351.      0.99395    
    23401.      0.99397    
    23451.      0.99399    
    23501.      0.99401    
    23551.      0.99403    
    23601.      0.99405    
    23651.      0.99407    
    23701.      0.99409    
    23750.      0.99411    
    23800.      0.99413    
    23850.      0.99415    
    23900.      0.99417    
    23950.      0.99419    
    24000.      0.99421    
    24050.      0.99423    
    24100.      0.99425    
    24150.      0.99427    
    24200.      0.99428    
    24250.      0.99430    
    24300.      0.99432    
    24350.      0.99434    
    24400.      0.99436    
    24450.      0.99437    
    24500.      0.99439    
    24550.      0.99441    
    24600.      0.99443    
    24650.      0.99444    
    24700.      0.99446    
    24750.      0.99448    
    24800.      0.99449    
    24850.      0.99451    
    24900.      0.99453    
    24950.      0.99454    
    25000.      0.99456    