 Zn Density=7.133 Thickness=4.7 microns
 Photon Energy (eV), Transmission
    10.000      0.00000    
    59.980      0.00000    
    109.96      0.00000    
    159.94      0.00000    
    209.92      0.00000    
    259.90      0.10743E-39
    309.88      0.23733E-29
    359.86      0.26066E-22
    409.84      0.47098E-17
    459.82      0.35811E-13
    509.80      0.38564E-10
    559.78      0.52608E-08
    609.76      0.13892E-06
    659.74      0.18053E-05
    709.72      0.12239E-04
    759.70      0.56417E-04
    809.68      0.21357E-03
    859.66      0.65569E-03
    909.64      0.16449E-02
    959.62      0.33663E-02
    1009.6      0.59891E-02
    1059.6      0.14667E-14
    1109.6      0.20537E-13
    1159.5      0.21140E-12
    1209.5      0.16774E-11
    1259.5      0.12350E-10
    1309.5      0.11249E-09
    1359.5      0.82728E-09
    1409.4      0.48019E-08
    1459.4      0.22793E-07
    1509.4      0.91542E-07
    1559.4      0.31849E-06
    1609.4      0.97251E-06
    1659.3      0.26505E-05
    1709.3      0.65409E-05
    1759.3      0.14971E-04
    1809.3      0.32026E-04
    1859.3      0.63938E-04
    1909.2      0.11989E-03
    1959.2      0.21262E-03
    2009.2      0.35817E-03
    2059.2      0.57964E-03
    2109.2      0.90581E-03
    2159.1      0.13663E-02
    2209.1      0.19966E-02
    2259.1      0.28353E-02
    2309.1      0.39220E-02
    2359.1      0.52998E-02
    2409.0      0.70076E-02
    2459.0      0.90852E-02
    2509.0      0.11568E-01
    2559.0      0.14490E-01
    2609.0      0.17879E-01
    2658.9      0.21754E-01
    2708.9      0.26140E-01
    2758.9      0.31043E-01
    2808.9      0.36469E-01
    2858.9      0.42419E-01
    2908.8      0.48892E-01
    2958.8      0.55875E-01
    3008.8      0.63354E-01
    3058.8      0.71313E-01
    3108.8      0.79732E-01
    3158.7      0.88586E-01
    3208.7      0.97849E-01
    3258.7      0.10749    
    3308.7      0.11749    
    3358.7      0.12781    
    3408.6      0.13842    
    3458.6      0.14930    
    3508.6      0.16041    
    3558.6      0.17172    
    3608.6      0.18321    
    3658.5      0.19485    
    3708.5      0.20660    
    3758.5      0.21845    
    3808.5      0.23037    
    3858.5      0.24234    
    3908.4      0.25434    
    3958.4      0.26635    
    4008.4      0.27834    
    4058.4      0.29029    
    4108.4      0.30221    
    4158.3      0.31406    
    4208.3      0.32584    
    4258.3      0.33752    
    4308.3      0.34911    
    4358.3      0.36059    
    4408.2      0.37196    
    4458.2      0.38319    
    4508.2      0.39429    
    4558.2      0.40525    
    4608.2      0.41607    
    4658.1      0.42673    
    4708.1      0.43724    
    4758.1      0.44760    
    4808.1      0.45779    
    4858.1      0.46782    
    4908.0      0.47768    
    4958.0      0.48737    
    5008.0      0.49690    
    5058.0      0.50626    
    5108.0      0.51546    
    5157.9      0.52449    
    5207.9      0.53335    
    5257.9      0.54205    
    5307.9      0.55059    
    5357.9      0.55895    
    5407.8      0.56716    
    5457.8      0.57521    
    5507.8      0.58310    
    5557.8      0.59083    
    5607.8      0.59840    
    5657.7      0.60581    
    5707.7      0.61309    
    5757.7      0.62022    
    5807.7      0.62720    
    5857.7      0.63404    
    5907.6      0.64073    
    5957.6      0.64729    
    6007.6      0.65371    
    6057.6      0.65999    
    6107.6      0.66615    
    6157.5      0.67218    
    6207.5      0.67809    
    6257.5      0.68386    
    6307.5      0.68952    
    6357.5      0.69506    
    6407.4      0.70048    
    6457.4      0.70579    
    6507.4      0.71099    
    6557.4      0.71608    
    6607.4      0.72106    
    6657.3      0.72594    
    6707.3      0.73072    
    6757.3      0.73539    
    6807.3      0.73997    
    6857.3      0.74446    
    6907.2      0.74885    
    6957.2      0.75315    
    7007.2      0.75736    
    7057.2      0.76148    
    7107.2      0.76552    
    7157.1      0.76948    
    7207.1      0.77335    
    7257.1      0.77715    
    7307.1      0.78086    
    7357.1      0.78451    
    7407.0      0.78807    
    7457.0      0.79157    
    7507.0      0.79499    
    7557.0      0.79835    
    7607.0      0.80164    
    7656.9      0.80486    
    7706.9      0.80801    
    7756.9      0.81111    
    7806.9      0.81414    
    7856.9      0.81711    
    7906.8      0.82002    
    7956.8      0.82288    
    8006.8      0.82568    
    8056.8      0.82843    
    8106.8      0.83112    
    8156.7      0.83376    
    8206.7      0.83634    
    8256.7      0.83888    
    8306.7      0.84137    
    8356.7      0.84381    
    8406.6      0.84621    
    8456.6      0.84855    
    8506.6      0.85086    
    8556.6      0.85312    
    8606.6      0.85534    
    8656.5      0.85751    
    8706.5      0.85965    
    8756.5      0.86175    
    8806.5      0.86380    
    8856.5      0.86582    
    8906.4      0.86780    
    8956.4      0.86974    
    9006.4      0.87165    
    9056.4      0.87353    
    9106.4      0.87537    
    9156.3      0.87717    
    9206.3      0.87895    
    9256.3      0.88069    
    9306.3      0.88240    
    9356.3      0.88408    
    9406.2      0.88573    
    9456.2      0.88735    
    9506.2      0.88894    
    9556.2      0.89051    
    9606.2      0.89204    
    9656.1      0.89355    
    9706.1      0.42361    
    9756.1      0.42829    
    9806.1      0.43293    
    9856.1      0.43754    
    9906.0      0.44211    
    9956.0      0.44666    
    10006.      0.45118    
    10056.      0.45566    
    10106.      0.46012    
    10156.      0.46455    
    10206.      0.46895    
    10256.      0.47332    
    10306.      0.47767    
    10356.      0.48199    
    10406.      0.48627    
    10456.      0.49053    
    10506.      0.49476    
    10556.      0.49895    
    10606.      0.50312    
    10656.      0.50726    
    10706.      0.51136    
    10756.      0.51543    
    10806.      0.51948    
    10856.      0.52350    
    10906.      0.52748    
    10956.      0.53144    
    11006.      0.53536    
    11056.      0.53925    
    11106.      0.54311    
    11156.      0.54695    
    11206.      0.55075    
    11256.      0.55451    
    11305.      0.55825    
    11355.      0.56197    
    11405.      0.56564    
    11455.      0.56929    
    11505.      0.57291    
    11555.      0.57650    
    11605.      0.58005    
    11655.      0.58358    
    11705.      0.58708    
    11755.      0.59055    
    11805.      0.59398    
    11855.      0.59739    
    11905.      0.60077    
    11955.      0.60412    
    12005.      0.60744    
    12055.      0.61073    
    12105.      0.61399    
    12155.      0.61722    
    12205.      0.62042    
    12255.      0.62360    
    12305.      0.62675    
    12355.      0.62987    
    12405.      0.63296    
    12455.      0.63602    
    12505.      0.63906    
    12555.      0.64206    
    12605.      0.64504    
    12655.      0.64800    
    12705.      0.65092    
    12755.      0.65382    
    12805.      0.65670    
    12855.      0.65954    
    12905.      0.66236    
    12955.      0.66516    
    13005.      0.66792    
    13055.      0.67067    
    13105.      0.67339    
    13155.      0.67608    
    13205.      0.67875    
    13255.      0.68139    
    13305.      0.68401    
    13355.      0.68660    
    13405.      0.68917    
    13455.      0.69172    
    13505.      0.69424    
    13555.      0.69674    
    13605.      0.69921    
    13655.      0.70166    
    13705.      0.70409    
    13755.      0.70650    
    13804.      0.70888    
    13854.      0.71124    
    13904.      0.71358    
    13954.      0.71590    
    14004.      0.71819    
    14054.      0.72047    
    14104.      0.72272    
    14154.      0.72495    
    14204.      0.72716    
    14254.      0.72935    
    14304.      0.73151    
    14354.      0.73366    
    14404.      0.73579    
    14454.      0.73790    
    14504.      0.73998    
    14554.      0.74205    
    14604.      0.74410    
    14654.      0.74613    
    14704.      0.74814    
    14754.      0.75012    
    14804.      0.75209    
    14854.      0.75405    
    14904.      0.75598    
    14954.      0.75790    
    15004.      0.75980    
    15054.      0.76168    
    15104.      0.76354    
    15154.      0.76539    
    15204.      0.76722    
    15254.      0.76903    
    15304.      0.77082    
    15354.      0.77260    
    15404.      0.77436    
    15454.      0.77610    
    15504.      0.77783    
    15554.      0.77954    
    15604.      0.78124    
    15654.      0.78292    
    15704.      0.78458    
    15754.      0.78623    
    15804.      0.78786    
    15854.      0.78948    
    15904.      0.79108    
    15954.      0.79267    
    16004.      0.79424    
    16054.      0.79580    
    16104.      0.79734    
    16154.      0.79887    
    16204.      0.80038    
    16253.      0.80189    
    16303.      0.80337    
    16353.      0.80485    
    16403.      0.80631    
    16453.      0.80775    
    16503.      0.80918    
    16553.      0.81060    
    16603.      0.81201    
    16653.      0.81341    
    16703.      0.81479    
    16753.      0.81615    
    16803.      0.81751    
    16853.      0.81885    
    16903.      0.82018    
    16953.      0.82150    
    17003.      0.82281    
    17053.      0.82410    
    17103.      0.82539    
    17153.      0.82666    
    17203.      0.82792    
    17253.      0.82917    
    17303.      0.83040    
    17353.      0.83163    
    17403.      0.83284    
    17453.      0.83405    
    17503.      0.83524    
    17553.      0.83642    
    17603.      0.83760    
    17653.      0.83876    
    17703.      0.83991    
    17753.      0.84105    
    17803.      0.84218    
    17853.      0.84330    
    17903.      0.84441    
    17953.      0.84551    
    18003.      0.84660    
    18053.      0.84768    
    18103.      0.84875    
    18153.      0.84981    
    18203.      0.85086    
    18253.      0.85190    
    18303.      0.85294    
    18353.      0.85396    
    18403.      0.85498    
    18453.      0.85599    
    18503.      0.85698    
    18553.      0.85797    
    18603.      0.85895    
    18653.      0.85992    
    18703.      0.86089    
    18753.      0.86184    
    18802.      0.86279    
    18852.      0.86373    
    18902.      0.86466    
    18952.      0.86558    
    19002.      0.86649    
    19052.      0.86740    
    19102.      0.86830    
    19152.      0.86919    
    19202.      0.87007    
    19252.      0.87095    
    19302.      0.87181    
    19352.      0.87268    
    19402.      0.87353    
    19452.      0.87437    
    19502.      0.87521    
    19552.      0.87604    
    19602.      0.87687    
    19652.      0.87768    
    19702.      0.87849    
    19752.      0.87930    
    19802.      0.88009    
    19852.      0.88088    
    19902.      0.88167    
    19952.      0.88244    
    20002.      0.88321    
    20052.      0.88398    
    20102.      0.88473    
    20152.      0.88549    
    20202.      0.88623    
    20252.      0.88697    
    20302.      0.88770    
    20352.      0.88843    
    20402.      0.88915    
    20452.      0.88986    
    20502.      0.89057    
    20552.      0.89127    
    20602.      0.89197    
    20652.      0.89266    
    20702.      0.89335    
    20752.      0.89403    
    20802.      0.89470    
    20852.      0.89537    
    20902.      0.89603    
    20952.      0.89669    
    21002.      0.89734    
    21052.      0.89799    
    21102.      0.89863    
    21152.      0.89927    
    21202.      0.89990    
    21252.      0.90053    
    21301.      0.90115    
    21351.      0.90176    
    21401.      0.90237    
    21451.      0.90298    
    21501.      0.90358    
    21551.      0.90418    
    21601.      0.90477    
    21651.      0.90536    
    21701.      0.90594    
    21751.      0.90652    
    21801.      0.90709    
    21851.      0.90766    
    21901.      0.90822    
    21951.      0.90878    
    22001.      0.90934    
    22051.      0.90989    
    22101.      0.91044    
    22151.      0.91098    
    22201.      0.91152    
    22251.      0.91205    
    22301.      0.91258    
    22351.      0.91310    
    22401.      0.91363    
    22451.      0.91414    
    22501.      0.91466    
    22551.      0.91517    
    22601.      0.91567    
    22651.      0.91617    
    22701.      0.91667    
    22751.      0.91716    
    22801.      0.91765    
    22851.      0.91814    
    22901.      0.91862    
    22951.      0.91910    
    23001.      0.91958    
    23051.      0.92005    
    23101.      0.92052    
    23151.      0.92098    
    23201.      0.92144    
    23251.      0.92190    
    23301.      0.92235    
    23351.      0.92280    
    23401.      0.92325    
    23451.      0.92369    
    23501.      0.92413    
    23551.      0.92457    
    23601.      0.92500    
    23651.      0.92543    
    23701.      0.92586    
    23750.      0.92628    
    23800.      0.92671    
    23850.      0.92712    
    23900.      0.92754    
    23950.      0.92795    
    24000.      0.92836    
    24050.      0.92876    
    24100.      0.92916    
    24150.      0.92956    
    24200.      0.92996    
    24250.      0.93035    
    24300.      0.93074    
    24350.      0.93113    
    24400.      0.93152    
    24450.      0.93190    
    24500.      0.93228    
    24550.      0.93266    
    24600.      0.93303    
    24650.      0.93340    
    24700.      0.93377    
    24750.      0.93413    
    24800.      0.93450    
    24850.      0.93486    
    24900.      0.93522    
    24950.      0.93557    
    25000.      0.93592    